# #CIE cooling from Gnat and Ferland 2012: http://wise-obs.tau.ac.il/~orlyg/ion_by_ion/
# #This is the CIE cooling used by Kim+2023, ApJS 264, 10
# #Tgas is in K, cool_He and cool_ZCIE are in erg cm^3/s
# #Total CIE cooling at any metalicity Z is given by: cool_He + Z*cool_ZCIE
# #Tgas Cool_He Cool_ZCIE
1.000000e+04 2.4083300000e-30 7.492228446690100e-24
1.050000e+04 6.9611800000e-30 8.644996042910500e-24
1.100000e+04 1.9062400000e-29 9.912619993315401e-24
1.160000e+04 5.0974900000e-29 1.136030818348080e-23
1.220000e+04 1.2935200000e-28 1.290221270289080e-23
1.280000e+04 3.1401900000e-28 1.461178939367960e-23
1.340000e+04 7.3271100000e-28 1.655354598870560e-23
1.410000e+04 1.6594500000e-27 1.876929049467760e-23
1.480000e+04 3.6507900000e-27 2.124639670667776e-23
1.550000e+04 7.6930400000e-27 2.389942041187489e-23
1.630000e+04 1.5658400000e-26 2.649516744612241e-23
1.710000e+04 3.1231700000e-26 2.865513906818880e-23
1.800000e+04 5.9995500000e-26 3.044408567848312e-23
1.890000e+04 1.1233200000e-25 3.175317318270440e-23
1.990000e+04 2.0424000000e-25 3.268779476413448e-23
2.090000e+04 3.6082400000e-25 3.358725830307352e-23
2.200000e+04 6.1527300000e-25 3.451298646992280e-23
2.310000e+04 1.0041800000e-24 3.572298755018881e-23
2.430000e+04 1.5743500000e-24 3.741409923125688e-23
2.560000e+04 2.3147200000e-24 3.969706817594184e-23
2.690000e+04 3.1657200000e-24 4.260529345542128e-23
2.830000e+04 3.9571500000e-24 4.622360322941056e-23
2.980000e+04 4.5273200000e-24 5.052844377350448e-23
3.140000e+04 4.7911300000e-24 5.563423894130064e-23
3.300000e+04 4.7911300000e-24 6.146785110049825e-23
3.470000e+04 4.6294400000e-24 6.822613231329777e-23
3.650000e+04 4.3911600000e-24 7.589195056278883e-23
3.840000e+04 4.1869200000e-24 8.451460335208119e-23
4.040000e+04 4.0848000000e-24 9.387171164017460e-23
4.260000e+04 4.1699000000e-24 1.040595641946690e-22
4.480000e+04 4.5528500000e-24 1.154133402673647e-22
4.710000e+04 5.3783200000e-24 1.275660826242024e-22
4.960000e+04 6.8250200000e-24 1.409950825390228e-22
5.220000e+04 9.1057000000e-24 1.551819428264483e-22
5.490000e+04 1.2594800000e-23 1.703363563087616e-22
5.780000e+04 1.7615700000e-23 1.863645335413687e-22
6.080000e+04 2.4253500000e-23 2.034359709080779e-22
6.400000e+04 3.2593300000e-23 2.208601971521710e-22
6.740000e+04 4.2124500000e-23 2.391629317184711e-22
7.090000e+04 5.1825900000e-23 2.574000820036460e-22
7.460000e+04 6.0080600000e-23 2.749589854255841e-22
7.860000e+04 6.5441900000e-23 2.920309315141408e-22
8.270000e+04 6.7399200000e-23 3.091691178805640e-22
8.700000e+04 6.6122700000e-23 3.255480532874992e-22
9.160000e+04 6.2548500000e-23 3.413989235982648e-22
9.640000e+04 5.7612700000e-23 3.562505430824768e-22
1.020000e+05 5.2081200000e-23 3.673586187642896e-22
1.070000e+05 4.6719900000e-23 3.720964692106223e-22
1.120000e+05 4.1613900000e-23 3.712223503286712e-22
1.180000e+05 3.6933400000e-23 3.658756359067937e-22
1.240000e+05 3.2848600000e-23 3.594520031479239e-22
1.310000e+05 2.9104200000e-23 3.555148885389093e-22
1.380000e+05 2.5955500000e-23 3.556059153877628e-22
1.450000e+05 2.3147200000e-23 3.594885551435248e-22
1.530000e+05 2.0764400000e-23 3.667099243611881e-22
1.610000e+05 1.8551800000e-23 3.750562067088960e-22
1.690000e+05 1.6679600000e-23 3.839540916105999e-22
1.780000e+05 1.5062700000e-23 3.917967180090820e-22
1.880000e+05 1.3701100000e-23 3.991172882171360e-22
1.980000e+05 1.2424600000e-23 4.058482833597980e-22
2.080000e+05 1.1318300000e-23 4.127048838615919e-22
2.190000e+05 1.0297100000e-23 4.189461340801901e-22
2.300000e+05 9.4461000000e-24 4.226227863626280e-22
2.420000e+05 8.6802000000e-24 4.202357889580640e-22
2.550000e+05 7.9908900000e-24 4.075524914056849e-22
2.690000e+05 7.3781700000e-24 3.814966952296360e-22
2.830000e+05 6.8335300000e-24 3.429258846289940e-22
2.980000e+05 6.3399500000e-24 2.976431499818890e-22
3.130000e+05 5.9059400000e-24 2.543022481222374e-22
3.300000e+05 5.5059700000e-24 2.184786392352105e-22
3.470000e+05 5.1570600000e-24 1.925822093448712e-22
3.660000e+05 4.8336800000e-24 1.749188883094440e-22
3.850000e+05 4.5443400000e-24 1.640557350179676e-22
4.050000e+05 4.2890400000e-24 1.575744985404420e-22
4.260000e+05 4.0507600000e-24 1.539136944858648e-22
4.490000e+05 3.8295000000e-24 1.522282292294772e-22
4.720000e+05 3.6337700000e-24 1.512048806914656e-22
4.970000e+05 3.5571800000e-24 1.503852853673200e-22
5.230000e+05 3.3954900000e-24 1.492259579022592e-22
5.510000e+05 3.2338000000e-24 1.468541180522332e-22
5.800000e+05 3.0806200000e-24 1.438190224169908e-22
6.100000e+05 2.9444600000e-24 1.397220241370032e-22
6.430000e+05 2.8168100000e-24 1.364348050322480e-22
6.760000e+05 2.7061800000e-24 1.341264154781552e-22
7.120000e+05 2.5955500000e-24 1.334226698542248e-22
7.490000e+05 2.5019400000e-24 1.340421738356868e-22
7.890000e+05 2.4168400000e-24 1.351468929122900e-22
8.300000e+05 2.3402500000e-24 1.371584476493156e-22
8.740000e+05 2.2721700000e-24 1.387175102462924e-22
9.200000e+05 2.2040900000e-24 1.398242909788545e-22
9.690000e+05 2.1445200000e-24 1.399190119015276e-22
1.020000e+06 2.0934600000e-24 1.390892546143928e-22
1.070000e+06 2.0424000000e-24 1.371948566125276e-22
1.130000e+06 1.9998500000e-24 1.343821288648052e-22
1.190000e+06 1.9658100000e-24 1.310065376062920e-22
1.250000e+06 1.9317700000e-24 1.270848420879060e-22
1.320000e+06 1.8977300000e-24 1.229272599886588e-22
1.390000e+06 1.8722000000e-24 1.184007130305740e-22
1.460000e+06 1.8466700000e-24 1.129498495875460e-22
1.540000e+06 1.8296500000e-24 1.067484288856552e-22
1.620000e+06 1.8126300000e-24 9.999273200583641e-23
1.700000e+06 1.7956100000e-24 9.236283320110567e-23
1.790000e+06 1.7871000000e-24 8.395875052743294e-23
1.890000e+06 1.7700800000e-24 7.553443874884448e-23
1.990000e+06 1.7615700000e-24 6.736444984536426e-23
2.090000e+06 1.7530600000e-24 5.973586943792136e-23
2.200000e+06 1.7530600000e-24 5.317116261448071e-23
2.320000e+06 1.7445500000e-24 4.759409531910832e-23
2.440000e+06 1.7445500000e-24 4.284407650724115e-23
2.570000e+06 1.7445500000e-24 3.885229007638112e-23
2.700000e+06 1.7445500000e-24 3.545124756207520e-23
2.840000e+06 1.7445500000e-24 3.242900283977552e-23
2.990000e+06 1.7530600000e-24 2.975022410100908e-23
3.150000e+06 1.7530600000e-24 2.735490269727664e-23
3.320000e+06 1.7615700000e-24 2.530274773454956e-23
3.490000e+06 1.7785900000e-24 2.352449849184760e-23
3.680000e+06 1.7956100000e-24 2.205511340917188e-23
3.870000e+06 1.8126300000e-24 2.084932115699716e-23
4.070000e+06 1.8211400000e-24 1.987503861584956e-23
4.290000e+06 1.8466700000e-24 1.908247347520408e-23
4.510000e+06 1.8636900000e-24 1.849959124556060e-23
4.750000e+06 1.8807100000e-24 1.807986525594336e-23
5.000000e+06 1.9062400000e-24 1.779589467735212e-23
5.010000e+06 1.9062400000e-24 1.780933995735212e-23
5.250000e+06 1.9232600000e-24 1.766816322926500e-23
5.500000e+06 1.9487900000e-24 1.759440038168000e-23
5.750000e+06 1.9658100000e-24 1.755868143009500e-23
6.030000e+06 1.9913400000e-24 1.762793885153600e-23
6.310000e+06 2.0083600000e-24 1.773453352947912e-23
6.610000e+06 2.0338900000e-24 1.789420548242336e-23
6.920000e+06 2.0594200000e-24 1.807756706486860e-23
7.240000e+06 2.0849500000e-24 1.825617855633784e-23
7.590000e+06 2.1104800000e-24 1.846044266781020e-23
7.940000e+06 2.1360100000e-24 1.865089568775756e-23
8.320000e+06 2.1615400000e-24 1.884174163375492e-23
8.710000e+06 2.1955800000e-24 1.891662840272940e-23
9.120000e+06 2.2211100000e-24 1.893266781470388e-23
9.550000e+06 2.2466400000e-24 1.884934176317936e-23
1.000000e+07 2.2806800000e-24 1.867858564467996e-23
1.050000e+07 2.3147200000e-24 1.842763563018480e-23
1.100000e+07 2.3572700000e-24 1.804919739869076e-23
1.150000e+07 2.3998200000e-24 1.754725753822072e-23
1.200000e+07 2.4423700000e-24 1.695647727572780e-23
1.260000e+07 2.4849200000e-24 1.626583351075989e-23
1.320000e+07 2.5274700000e-24 1.547324684026896e-23
1.380000e+07 2.5785300000e-24 1.461268419730104e-23
1.450000e+07 2.6210800000e-24 1.368910499483524e-23
1.510000e+07 2.6721400000e-24 1.274771167737056e-23
1.580000e+07 2.7146900000e-24 1.180490734640576e-23
1.660000e+07 2.7657500000e-24 1.088829603944208e-23
1.740000e+07 2.8168100000e-24 1.001056698150240e-23
1.820000e+07 2.8678700000e-24 9.249464717539841e-24
1.910000e+07 2.9189300000e-24 8.538287738600157e-24
2.000000e+07 2.9699900000e-24 7.887273121138601e-24
2.090000e+07 3.0210500000e-24 7.348186491701040e-24
2.190000e+07 3.0721100000e-24 6.866284646738479e-24
2.290000e+07 3.1231700000e-24 6.442908170803040e-24
2.400000e+07 3.1827400000e-24 6.053855167365480e-24
2.510000e+07 3.2338000000e-24 5.753909267905039e-24
2.630000e+07 3.2848600000e-24 5.464114954969600e-24
2.750000e+07 3.3444300000e-24 5.219870943532039e-24
2.880000e+07 3.3954900000e-24 4.995609328596600e-24
3.020000e+07 3.4465500000e-24 4.803272052637160e-24
3.160000e+07 3.5061200000e-24 4.633294071205200e-24
3.310000e+07 3.5742000000e-24 4.491008694791400e-24
3.470000e+07 3.6422800000e-24 4.358145690364800e-24
3.630000e+07 3.7018500000e-24 4.236855466962200e-24
3.800000e+07 3.7699300000e-24 4.127329657524400e-24
3.980000e+07 3.8380100000e-24 4.027479125121799e-24
4.170000e+07 3.9060900000e-24 3.947501075684000e-24
4.370000e+07 3.9656600000e-24 3.870459636281401e-24
4.570000e+07 4.0337400000e-24 3.798968525843600e-24
4.790000e+07 4.0933100000e-24 3.740558546440999e-24
5.010000e+07 4.1528800000e-24 3.680738879003199e-24
5.250000e+07 4.2124500000e-24 3.630173489075600e-24
5.500000e+07 4.2720200000e-24 3.585093617637800e-24
5.750000e+07 4.3230800000e-24 3.541493505710199e-24
6.030000e+07 4.3741400000e-24 3.503886901771400e-24
6.310000e+07 4.4252000000e-24 3.467813244832600e-24
6.610000e+07 4.4762600000e-24 3.436695012869799e-24
6.920000e+07 4.5188100000e-24 3.405498331931000e-24
7.240000e+07 4.5613600000e-24 3.383395046467200e-24
7.590000e+07 4.6039100000e-24 3.353543905003400e-24
7.940000e+07 4.6379500000e-24 3.326235303064600e-24
8.320000e+07 4.6719900000e-24 3.302981482099800e-24
8.710000e+07 4.7060300000e-24 3.288266642600800e-24
9.120000e+07 4.7315600000e-24 3.262002358137000e-24
9.550000e+07 4.7656000000e-24 3.242957106161000e-24
1.000000e+08 4.7826200000e-24 3.217199471172200e-24
